#Acq. time (s)=	60
#Accumulations=	2
#Range=	Off
#Autofocus=	Off
#SWIFT=	Off
#Macrospot=	Off
#AutoExposure=	Off
#Spike filter=	Multiple accum.
#Delay time (s)=	0
#Binning=	1
#Readout mode=	Signal
#DeNoise=	Standard
#ICS correction=	On
#Dark correction=	Off
#Inst. Process=	Off
#Detector Gain=	Best Dynamic Range
#Detector ADC=	20 kHz       
#Detector temperature (°C)=	-70.13
#Instrument=	LabRAM HR Evol
#Detector=	Synapse CCD
#Objective=	x50 LWD
#Grating=	600 gr/mm
#ND Filter=	1%
#Laser (nm)=	532 
#Spectro (cm-¹)=	974.962
#Hole=	499.984
#Range=	Visible
#Laser Pol.=	No
#Raman. Pol.=	No
#Laser Pol. (°)=	45.008
#Raman Pol. (°)=	-0.0055
#StageXY=	Marzhauser
#StageZ=	Marzhauser
#X (µm)=	-0.4
#Y (µm)=	-0.6
#Z (µm)=	-326.7
#Full time(mm:ss)=	6:05
#Project=	
#Sample=	
#Site=	
#Title=	lasertest1
#Remark=	
#Date=	17.05.2023 11:16
#Acquired=	17.05.2023 11:16:52
#Base:Fit Sub=	17.05.2023 11:22:56
#AxisType[0]=Intens
#AxisUnit[0]=Cnt
#AxisType[1]=Spectr
#AxisUnit[1]=1/cm
#AxisType[2]=Points
#AxisUnit[2]=
	83.7234	85.5632	87.4005	89.2374	91.0762	92.9124	94.7483	96.5859	98.4211	100.256	102.092	103.927	105.76	107.594	109.429	111.261	113.094	114.926	116.759	118.59	120.421	122.252	124.084	125.914	127.743	129.572	131.401	133.231	135.059	136.887	138.714	140.541	142.368	144.194	146.022	147.847	149.672	151.497	153.321	155.145	156.969	158.792	160.615	162.44	164.262	166.084	167.906	169.727	171.548	173.368	175.188	177.008	178.828	180.647	182.465	184.284	186.102	187.919	189.737	191.553	193.37	195.186	197.002	198.818	200.633	202.447	204.262	206.074	207.888	209.701	211.514	213.327	215.139	216.951	218.763	220.574	222.385	224.193	226.003	227.813	229.623	231.432	233.241	235.047	236.855	238.663	240.47	242.277	244.082	245.888	247.694	249.5	251.303	253.108	254.912	256.716	258.518	260.322	262.125	263.928	265.728	267.53	269.332	271.131	272.932	274.733	276.531	278.331	280.131	281.928	283.727	285.526	287.322	289.12	290.917	292.712	294.509	296.304	298.1	299.896	301.689	303.484	305.277	307.071	308.863	310.657	312.448	314.241	316.032	317.824	319.616	321.406	323.197	324.986	326.774	328.565	330.352	332.142	333.929	335.718	337.504	339.293	341.078	342.866	344.651	346.436	348.222	350.006	351.792	353.575	355.358	357.143	358.925	360.707	362.491	364.272	366.053	367.836	369.616	371.396	373.177	374.957	376.735	378.516	380.294	382.072	383.849	385.629	387.405	389.182	390.958	392.736	394.511	396.286	398.061	399.838	401.612	403.385	405.159	406.932	408.704	410.479	412.251	414.022	415.794	417.565	419.335	421.108	422.878	424.647	426.417	428.185	429.954	431.722	433.49	435.258	437.025	438.792	440.558	442.327	444.093	445.858	447.623	449.388	451.153	452.917	454.681	456.444	458.207	459.97	461.733	463.495	465.254	467.016	468.777	470.538	472.298	474.058	475.818	477.577	479.337	481.095	482.854	484.612	486.367	488.125	489.882	491.639	493.395	495.151	496.907	498.66	500.415	502.17	503.924	505.678	507.43	509.183	510.936	512.689	514.439	516.191	517.943	519.694	521.443	523.194	524.944	526.694	528.442	530.191	531.94	533.687	535.435	537.183	538.929	540.676	542.423	544.168	545.914	547.66	549.404	551.149	552.892	554.637	556.381	558.123	559.867	561.608	563.351	565.094	566.834	568.576	570.315	572.057	573.796	575.536	577.275	579.015	580.752	582.492	584.229	585.967	587.704	589.442	591.177	592.915	594.65	596.384	598.121	599.855	601.59	603.324	605.057	606.791	608.524	610.258	611.989	613.721	615.454	617.184	618.915	620.647	622.377	624.106	625.837	627.566	629.294	631.024	632.752	634.479	636.206	637.935	639.662	641.388	643.113	644.841	646.566	648.291	650.015	651.741	653.465	655.189	656.912	658.635	660.357	662.081	663.803	665.524	667.246	668.966	670.687	672.407	674.129	675.849	677.568	679.287	681.005	682.724	684.441	686.159	687.876	689.593	691.31	693.026	694.742	696.458	698.173	699.888	701.603	703.317	705.031	706.745	708.458	710.171	711.884	713.596	715.308	717.02	718.731	720.442	722.153	723.864	725.574	727.281	728.991	730.7	732.409	734.117	735.826	737.533	739.239	740.946	742.653	744.36	746.066	747.772	749.475	751.181	752.886	754.59	756.293	757.997	759.7	761.404	763.105	764.807	766.51	768.212	769.911	771.613	773.314	775.013	776.713	778.413	780.111	781.811	783.51	785.207	786.905	788.603	790.299	791.997	793.692	795.389	797.086	798.78	800.476	802.17	803.865	805.558	807.253	808.945	810.639	812.331	814.024	815.717	817.408	819.099	820.791	822.481	824.172	825.861	827.552	829.241	830.931	832.619	834.308	835.996	837.683	839.371	841.058	842.746	844.432	846.117	847.804	849.489	851.173	852.859	854.543	856.227	857.912	859.595	861.277	862.961	864.643	866.325	868.006	869.689	871.37	873.05	874.73	876.412	878.091	879.77	881.449	883.13	884.808	886.486	888.163	889.84	891.519	893.196	894.872	896.548	898.224	899.899	901.574	903.249	904.925	906.599	908.273	909.946	911.619	913.292	914.965	916.637	918.309	919.98	921.652	923.323	924.993	926.663	928.333	930.003	931.672	933.342	935.01	936.679	938.347	940.015	941.682	943.349	945.016	946.683	948.349	950.015	951.681	953.344	955.009	956.674	958.338	960.002	961.666	963.33	964.991	966.654	968.316	969.978	971.64	973.3	974.961	976.622	978.283	979.943	981.601	983.261	984.921	986.58	988.237	989.895	991.553	993.209	994.867	996.524	998.179	999.836	1001.49	1003.15	1004.8	1006.46	1008.11	1009.77	1011.42	1013.07	1014.73	1016.38	1018.03	1019.68	1021.33	1022.99	1024.64	1026.29	1027.94	1029.59	1031.24	1032.89	1034.54	1036.19	1037.83	1039.48	1041.13	1042.78	1044.43	1046.07	1047.72	1049.37	1051.01	1052.66	1054.3	1055.95	1057.59	1059.24	1060.88	1062.53	1064.17	1065.81	1067.46	1069.1	1070.74	1072.38	1074.02	1075.67	1077.31	1078.95	1080.59	1082.23	1083.87	1085.51	1087.15	1088.78	1090.42	1092.06	1093.7	1095.34	1096.97	1098.61	1100.25	1101.88	1103.52	1105.15	1106.79	1108.42	1110.06	1111.69	1113.33	1114.96	1116.59	1118.23	1119.86	1121.49	1123.12	1124.75	1126.39	1128.02	1129.65	1131.28	1132.91	1134.54	1136.17	1137.8	1139.43	1141.06	1142.68	1144.31	1145.94	1147.57	1149.19	1150.82	1152.45	1154.07	1155.7	1157.32	1158.95	1160.57	1162.2	1163.82	1165.45	1167.07	1168.69	1170.31	1171.94	1173.56	1175.18	1176.8	1178.42	1180.05	1181.67	1183.29	1184.91	1186.53	1188.15	1189.77	1191.39	1193	1194.62	1196.24	1197.86	1199.47	1201.09	1202.71	1204.32	1205.94	1207.56	1209.17	1210.79	1212.4	1214.01	1215.63	1217.24	1218.86	1220.47	1222.08	1223.7	1225.31	1226.92	1228.53	1230.14	1231.75	1233.36	1234.97	1236.58	1238.19	1239.8	1241.41	1243.02	1244.63	1246.24	1247.85	1249.45	1251.06	1252.67	1254.28	1255.88	1257.49	1259.09	1260.7	1262.3	1263.91	1265.51	1267.12	1268.72	1270.32	1271.93	1273.53	1275.13	1276.74	1278.34	1279.94	1281.54	1283.14	1284.74	1286.34	1287.94	1289.54	1291.14	1292.74	1294.34	1295.94	1297.54	1299.14	1300.74	1302.33	1303.93	1305.53	1307.12	1308.72	1310.32	1311.91	1313.51	1315.1	1316.69	1318.29	1319.88	1321.48	1323.07	1324.66	1326.26	1327.85	1329.44	1331.03	1332.63	1334.22	1335.81	1337.4	1338.99	1340.58	1342.17	1343.76	1345.35	1346.94	1348.53	1350.11	1351.7	1353.29	1354.87	1356.46	1358.05	1359.64	1361.22	1362.81	1364.39	1365.98	1367.56	1369.15	1370.73	1372.32	1373.9	1375.48	1377.07	1378.65	1380.23	1381.81	1383.4	1384.98	1386.56	1388.14	1389.72	1391.3	1392.88	1394.46	1396.04	1397.62	1399.2	1400.78	1402.35	1403.93	1405.51	1407.09	1408.67	1410.24	1411.82	1413.39	1414.97	1416.55	1418.12	1419.7	1421.27	1422.84	1424.42	1425.99	1427.56	1429.14	1430.71	1432.28	1433.86	1435.43	1437	1438.57	1440.14	1441.71	1443.28	1444.85	1446.42	1447.99	1449.56	1451.13	1452.7	1454.27	1455.84	1457.4	1458.97	1460.54	1462.11	1463.67	1465.24	1466.8	1468.37	1469.94	1471.5	1473.06	1474.63	1476.19	1477.76	1479.32	1480.88	1482.45	1484.01	1485.57	1487.13	1488.69	1490.26	1491.82	1493.38	1494.94	1496.5	1498.06	1499.62	1501.18	1502.74	1504.3	1505.86	1507.41	1508.97	1510.53	1512.09	1513.64	1515.2	1516.76	1518.31	1519.87	1521.42	1522.98	1524.54	1526.09	1527.64	1529.2	1530.75	1532.31	1533.86	1535.41	1536.96	1538.52	1540.07	1541.62	1543.17	1544.72	1546.27	1547.82	1549.37	1550.92	1552.47	1554.02	1555.57	1557.12	1558.67	1560.22	1561.76	1563.31	1564.86	1566.41	1567.95	1569.5	1571.05	1572.59	1574.14	1575.68	1577.23	1578.77	1580.32	1581.86	1583.4	1584.95	1586.49	1588.03	1589.58	1591.12	1592.66	1594.2	1595.74	1597.28	1598.82	1600.37	1601.91	1603.45	1604.99	1606.52	1608.06	1609.6	1611.14	1612.68	1614.22	1615.75	1617.29	1618.83	1620.37	1621.9	1623.44	1624.97	1626.51	1628.05	1629.58	1631.12	1632.65	1634.19	1635.72	1637.25	1638.79	1640.32	1641.85	1643.38	1644.92	1646.45	1647.98	1649.51	1651.04	1652.57	1654.1	1655.63	1657.16	1658.69	1660.22	1661.75	1663.28	1664.81	1666.34	1667.86	1669.39	1670.92	1672.44	1673.97	1675.5	1677.02	1678.55	1680.07	1681.6	1683.12	1684.65	1686.17	1687.7	1689.22	1690.74	1692.27	1693.79	1695.31	1696.84	1698.36	1699.88	1701.4	1702.92	1704.44	1705.96	1707.48	1709	1710.52	1712.04	1713.56	1715.08	1716.6	1718.12	1719.64	1721.15	1722.67	1724.19	1725.7	1727.22	1728.74	1730.25	1731.77	1733.28	1734.8	1736.32	1737.83	1739.34	1740.86	1742.37	1743.89	1745.4	1746.91	1748.42	1749.94	1751.45	1752.96	1754.47	1755.98	1757.49	1759.01	1760.51	1762.03	1763.54	1765.04	1766.55	1768.06	1769.57	1771.08	1772.59	1774.1	1775.6	1777.11	1778.62	1780.12	1781.63	1783.14	1784.64	1786.15
1	-4.05818	6.41124	14.4781	20.3102	22.0376	22.0768	20.7886	18.8094	16.3713	13.746	10.4517	7.18226	4.11257	1.35682	-0.896359	-2.56119	-3.64486	-4.21999	-4.32992	-3.98491	-3.31666	-2.25986	-0.940538	0.529454	1.78191	2.81842	3.61068	4.17518	4.14664	3.63675	2.65082	1.37471	0.356177	-0.645857	2.87811	7.5709	12.6695	16.923	20.1645	22.3995	22.7524	21.1639	18.2364	14.4975	14.3407	14.6514	14.6921	13.9824	12.0903	10.3475	8.73779	7.45094	6.68111	6.97259	9.0213	11.7928	14.7449	17.993	21.849	25.6947	28.4919	30.656	31.8784	31.8877	30.8905	27.2522	22.2259	17.3265	12.6733	9.05356	6.91517	5.75023	5.38042	6.26604	7.95192	10.7752	14.6744	20.0314	26.3578	33.3141	40.7928	48.4423	55.0624	60.8941	66.0408	70.3484	73.9232	76.8338	78.7464	80.0963	80.5799	80.505	79.0247	75.6038	70.5869	64.0952	57.432	51.1225	45.0767	39.394	34.4683	30.1756	26.3654	23.3497	21.0185	18.8466	17.0423	15.703	14.4832	14.0376	14.6126	15.8968	16.2669	15.4628	14.0394	11.3072	7.72014	3.98351	0.647332	-2.0353	-4.22752	-5.37494	-4.51362	-2.93453	-0.810534	1.86589	5.07654	8.60268	11.7097	16.4673	21.455	26.3517	30.7913	34.5007	35.4279	35.9427	35.8728	34.5246	32.4314	29.7842	26.7789	23.9038	21.2296	19.0036	17.6883	16.8429	16.6251	17.3766	18.7717	20.7472	22.944	25.3198	27.5032	29.3525	30.8629	31.9837	32.8559	32.4271	30.7747	28.7883	26.5592	24.8173	25.1	26.8066	28.8857	31.388	33.5444	35.3366	35.7472	35.5368	34.7764	33.4737	31.7373	29.7016	27.1198	24.6011	22.0959	19.764	17.7677	15.9837	14.5868	13.5127	12.9748	12.8862	13.2946	14.0669	15.3623	17.4999	20.752	23.6249	26.6237	28.8703	31.2807	34.579	37.7867	40.9503	43.5332	45.5085	46.9779	47.3075	47.1155	46.5241	45.5749	44.6072	43.2687	41.6762	40.1055	38.6528	37.2916	36.1293	34.9577	34.1998	33.5785	33.7832	34.2122	34.6785	35.2397	35.2029	33.4538	31.1463	29.6295	28.7775	29.3851	29.5815	28.9837	29.3293	30.4151	31.9625	33.202	34.1283	34.7566	34.302	33.9846	33.0885	32.3211	31.4864	31.0571	32.1152	34.6474	37.6754	41.1014	44.3911	47.8995	50.3181	52.2599	53.6364	54.4919	52.8158	49.2962	45.5233	41.8326	38.3644	36.6547	35.2215	34.0934	33.6412	35.2537	37.4354	39.9931	42.7159	45.211	45.9929	46.5908	46.0485	45.0958	43.9	40.9129	39.2615	42.2324	48.2135	54.7456	61.4882	67.3665	72.2018	76.0537	79.5466	82.3139	85.0557	85.5781	85.196	84.0636	82.3474	80.078	77.4613	74.4072	72.0667	69.0406	65.6825	62.48	58.5028	54.1689	49.3176	44.4345	39.6903	35.1492	32.7966	30.9535	30.394	30.9965	31.4414	32.1243	31.7622	31.7727	31.2588	31.2436	31.6384	32.9181	34.7962	36.4206	38.4157	40.11	40.4643	53.5647	74.2235	125.65	120.909	75.2258	53.1163	46.4562	55.0707	61.0963	64.3828	66.2888	65.7196	64.421	59.3343	64.3488	67.2891	69.6315	71.147	71.9376	72.3149	72.9002	72.5175	71.1516	69.4928	67.7709	66.3314	65.5174	66.2124	66.7923	67.818	68.7494	70.0041	71.2866	72.4858	73.2893	74.1101	73.8563	73.4258	72.63	74.5332	77.8492	80.6249	82.4328	84.0805	85.0823	85.1962	84.5022	82.3559	79.8671	76.6628	72.8581	69.7369	67.904	66.417	65.0107	63.6147	62.0571	59.8624	57.8833	56.0237	53.8915	51.7132	49.6452	47.1081	44.6145	42.097	39.4132	38.2869	37.5097	37.741	38.5737	39.1502	39.6251	39.5202	39.4504	39.5263	39.4243	39.3782	39.4752	39.7087	40.154	41.0483	42.3872	44.2866	46.6073	48.7146	51.3404	53.7808	55.5956	56.485	56.5065	54.0005	49.496	45.1236	40.4895	35.5794	31.4807	27.7767	24.7255	22.9625	22.3084	24.3311	28.2357	34.016	51.6763	55.2195	57.9156	59.8426	62.0515	62.8553	61.9219	53.1648	51.3142	44.0238	40.6717	38.2811	37.3101	37.1011	37.5504	38.1535	38.5429	39.608	41.3057	42.8283	43.8543	43.7719	40.1944	36.6637	41.07	39.7914	38.0506	35.1601	32.0098	26.7258	21.4663	16.2839	11.5019	8.87521	7.4994	7.99041	9.08401	15.2183	16.5202	16.5383	15.0867	8.99145	8.1165	11.4236	15.7408	19.108	21.176	22.3184	23.1865	24.836	26.6619	28.2243	29.3804	29.7656	29.3342	28.2197	26.2391	23.0134	18.447	9.97059	8.10675	9.45117	11.6225	14.0952	16.5691	18.8803	20.4993	21.784	22.1983	22.0437	21.5138	20.1621	18.5003	16.4079	13.9408	10.784	6.78197	1.61438	-3.30563	-7.46243	-7.86065	-5.41432	-0.406293	5.85385	13.0432	20.3186	25.5628	29.6779	32.5874	25.5555	25.9483	26.2109	25.8658	25.2232	24.5297	22.2238	20.0466	18.6681	18.1584	19.3459	22.3268	27.0725	32.1894	37.4368	42.5876	44.2473	45.1388	45.8066	46.5034	47.9398	49.4943	51.0135	52.8623	54.8515	56.9691	59.3276	61.0121	62.3816	62.452	63.4402	65.6975	68.4389	70.2681	70.9161	68.3519	64.7697	60.8251	56.5651	53.5609	49.344	45.3092	40.1914	35.1246	30.8679	27.3912	25.934	26.059	27.7337	29.9831	32.6843	35.6236	37.3792	39.6012	42.0861	44.5465	46.7702	48.6023	49.694	50.4683	50.0171	48.7852	46.2228	43.2855	40.3465	37.482	34.8913	32.6908	31.4223	30.0451	29.3294	28.8529	29.3531	29.6867	30.4263	29.5262	26.1455	22.5489	18.8601	15.2045	12.2051	10.1964	7.3549	4.84509	3.37467	2.83956	3.3765	5.76096	9.04423	13.3702	16.5769	19.6438	21.3518	22.8901	24.2612	25.3686	26.2848	26.4129	27.4022	28.6183	29.6446	29.7367	29.5173	28.8814	28.0013	26.7978	25.3787	23.8707	22.1864	20.5901	19.2008	16.8983	13.9606	10.8342	7.62715	4.77414	2.25983	1.81671	1.16884	1.86098	3.07935	4.97247	6.87963	8.71647	9.79366	9.81533	9.74398	8.72968	6.39387	2.30277	-1.6811	-5.65002	-5.70165	-5.12709	-3.06555	-0.73846	1.83034	4.06599	5.72974	7.68406	8.60889	9.47112	9.51174	9.29819	9.79331	10.2802	11.7897	13.2716	14.8031	15.2128	14.8979	14.7427	15.2098	15.8725	17.9351	19.6715	21.9076	24.7631	27.8714	32.6818	38.4425	43.9381	48.7281	52.5009	55.56	57.6962	58.3001	55.9126	51.9386	47.2777	42.6177	39.0917	35.8582	32.8113	29.8367	27.5103	25.8587	25.0739	24.0802	23.2971	22.2866	22.0826	22.2036	23.2356	25.2897	27.6719	30.2714	32.766	34.3147	32.1475	35.3237	46.2444	46.3527	44.5821	42.014	38.5544	34.0772	27.3889	20.4083	13.7382	11.0716	11.2889	12.6824	15.0621	17.8914	21.2166	24.6929	28.3633	31.562	35.251	39.2186	43.1454	47.0762	51.2797	54.7022	57.8956	60.3681	62.12	66.2816	70.6521	75.3456	78.9393	80.5783	80.9972	80.4607	78.7572	75.9515	72.353	68.0989	62.3535	56.392	50.417	45.8237	43.246	41.359	40.3617	40.0821	40.3878	41.4827	43.0512	44.998	46.8663	50.3132	53.577	56.6289	56.9078	54.5373	51.6739	47.5477	42.7424	38.226	34.6074	31.543	30.0207	28.9919	28.5949	28.3982	29.3153	31.052	33.3171	35.5361	36.7515	36.3788	35.841	35.3808	35.2063	35.9486	36.0836	36.062	35.0898	33.9596	30.1178	25.5509	20.8994	18.0018	15.7783	13.9539	12.6097	11.7764	11.3516	11.3724	11.7575	12.6416	13.79	15.0617	16.5625	18.1562	19.9729	20.6125	20.9169	21.1156	21.7298	24.3304	29.7547	35.3575	41.2722	47.2319	51.6329	54.9076	56.9198	57.0069	53.581	47.9301	40.9495	34.8034	28.8131	21.626	14.998	9.02055	3.77321	-0.125769	-1.77138	-2.3813	-2.05371	-0.907167	1.52367	4.45069	7.94026	10.8479	13.969	17.2238	19.9517	22.0347	23.4174	24.5152	22.9227	21.4456	20.7699	20.6835	21.6531	22.4037	21.8489	20.5975	20.1021	19.9996	20.3974	20.8156	21.1886	21.5178	21.5819	21.3832	20.6542	19.6383	18.1206	16.2955	14.4456	12.959	10.7448	8.30212	5.77557	3.49913	1.8853	0.920402	1.37665	1.81111	2.3733	3.39319	4.95818	7.39045	10.0571	12.4128	10.3891	4.59668	3.3316	2.81863	2.56142	1.82025	0.25173	-1.96285	-4.02208	-5.86529	-7.24503	-8.04336	-6.85257	-5.14151	-3.33058	-1.1959	1.08322	3.51888	4.30396	4.55346	4.62322	4.51595	5.5859	8.60371	11.9157	15.2051	18.9727	22.2732	26.5284	30.8897	38.5294	46.1619	52.7865	55.7021	56.7855	55.739	52.6147	46.788	38.3507	28.1003	15.9848	11.0205	20.3474	19.4618	13.6373	8.14506	3.42814	0.717709	-0.365173	-0.0842503	1.42593	4.23682	9.36098	15.7264	22.7832	30.2661	36.852	41.5852	45.6447	48.584	49.7727	49.0728	46.6709	42.9049	37.9604	32.019	24.5329	17.3191	11.5413	7.8892	7.11429	8.57952	11.3607	15.229	19.6328	23.4818	27.8794	32.2936	35.4769	37.1513	35.5841	32.0553	27.3621	24.1628	20.6974	17.5148	14.5466	11.9504	11.0429	11.7607	12.7201	14.6436	16.8814	19.3235	21.2788	22.9136	23.638	24.1808	23.5046	22.0994	21.3637	21.4641	20.9753	19.9503	15.0927	9.20194	3.87213	0.0940996	-2.87055	-4.06123	-1.6835	1.98091	4.69813	5.22439	5.6111	6.08532	7.09446	8.49372	11.0688	13.5756	16.1246	18.3865	19.9604	20.2976	19.7485	17.6332	12.7807	15.6257	20.4154	26.3449	32.1767	36.9052	40.4049	42.7553	41.5388	38.741	35.1461	30.998	28.5741	24.5246	19.8384	14.4122	9.02968	4.07948	0.0215417	-2.78378	-4.58025	-4.74187	-3.85311	-1.57497	1.31899	4.34809	4.349	4.87605	2.61674	0.558903	3.61988	12.3297
2	342.509	316.46	289.599	281.329	266.808	281.656	256.524	245.648	246.829	264.094	317.816	447.669	839.136	246.493	187.381	202.713	202.972	208.461	203.473	201.596	197.783	195.936	191.186	186.51	177.98	175.325	174.054	175.06	177.077	181.66	191.067	194.117	199.975	201.759	199.429	196.722	190.205	181.814	174.513	169.618	165.167	156.462	153.646	147.111	146.183	152.335	159.274	166.839	168.444	171.515	170.148	169.196	166.448	157.552	149.727	139.528	130.557	118.533	112.963	119.021	131.286	120.675	124.753	128.024	133.336	134.081	129.502	121.282	99.6076	87.343	93.3701	87.3156	84.5939	79.096	66.3581	61.4928	58.6698	56.2956	56.3967	59.4178	63.3213	72.8703	87.5365	94.8564	101.362	107.725	112.2	115.001	116.133	109.334	105.033	106.127	100.628	97.2811	85.4926	72.557	63.3495	57.274	50.6326	43.5467	34.34	24.9596	16.7253	10.3684	3.48171	-3.21493	-4.76613	-4.45245	-2.94422	-0.729715	1.38742	4.61011	7.32891	13.2703	20.7082	28.6757	33.3108	35.871	38.3147	37.4733	35.1588	34.4781	33.05	30.3971	30.2571	32.1022	32.196	31.424	31.9296	30.2215	29.5605	30.8396	31.1018	32.2515	35.6717	37.2833	41.2911	46.7272	51.5397	52.1674	54.5681	55.3742	56.5647	60.0553	56.8212	53.8056	48.9023	39.7151	31.4078	27.3809	25.8776	31.9667	33.8933	35.8063	43.87	45.0539	46.7404	48.4518	48.4851	42.4027	30.4359	26.469	23.0517	21.5434	19.3321	22.7232	27.0837	28.9572	30.0774	31.4537	32.4703	36.5448	39.8395	41.6139	42.5364	40.7692	38.1069	35.0898	32.6549	29.6609	28.3203	30.4883	30.5972	29.9128	26.8395	22.4652	19.7336	17.2503	15.1978	13.6431	15.0231	15.6433	18.8737	21.6855	26.0736	28.9553	31.5244	31.1098	31.0807	28.3059	27.8881	32.3874	31.6063	29.3173	28.8833	26.8309	26.9213	30.7686	33.2765	38.5669	47.7839	58.2232	66.8132	74.6704	79.7324	83.5709	87.1736	90.875	94.3755	92.4899	92.9547	95.1753	91.6033	87.4618	82.8941	74.936	68.4939	64.4834	62.8109	60.9674	60.1532	61.5814	63.0336	63.7799	66.1407	69.0094	73.2978	70.901	67.2263	59.1157	52.2203	47.9293	40.3777	32.2008	27.2378	23.191	21.9556	23.3232	24.9468	28.0424	31.6727	39.0174	40.7448	44.2382	48.0939	49.2024	46.8375	42.7426	40.4198	37.8323	34.9887	34.6275	33.3534	34.5874	37.1317	41.1722	44.2545	45.0075	44.2213	45.0121	46.8208	47.3451	47.5169	46.0595	43.7983	37.8858	31.028	24.6704	20.9524	14.7655	9.30728	6.64477	1.73378	-3.7547	-4.00402	-4.72667	-2.26578	-0.826763	-0.0626597	1.28779	5.46806	6.99607	9.43398	9.97121	11.9334	9.79872	4.99853	5.95293	7.54113	9.74218	16.4416	25.2785	23.7695	19.8082	16.7833	15.9383	13.3433	14.9704	7.95843	1.07223	-5.92908	-5.35216	-10.2784	-12.1	-21.1091	-28.3182	-29.1176	-21.4775	-7.74937	11.083	25.7713	42.146	31.6364	39.2832	45.7553	51.339	56.3651	60.3604	61.9137	61.0342	58.5933	53.6732	45.6382	37.4632	27.2689	20.6115	13.0442	9.84005	6.82817	4.80082	5.90758	8.03813	9.00355	9.73389	10.2554	10.6522	14.042	15.9293	18.3399	20.781	24.2495	28.2599	29.4347	32.4651	35.1352	41.4278	45.2833	43.5401	42.3274	38.7268	34.8678	32.8152	31.9066	32.1574	32.2523	34.0569	34.7292	31.6921	31.5664	31.5587	33.438	39.1356	40.3835	44.1436	44.5719	42.7472	39.8503	36.8044	38.2547	39.909	41.3321	43.4738	48.4845	50.7457	53.0864	53.3623	48.605	47.625	23.2639	18.3206	14.1049	11.5284	7.98783	8.12066	12.2866	16.698	21.6188	27.0031	33.7848	35.233	33.1662	31.9008	31.87	33.7049	37.3627	35.5265	34.5114	33.0092	28.9336	23.9977	22.3556	16.8856	14.0542	10.3516	8.88549	4.75843	1.24258	-0.949077	-2.32432	-2.89991	0.108172	5.38367	12.0214	22.3147	30.7108	36.5792	42.7476	47.3817	54.8549	58.9013	60.6743	59.9681	59.5128	56.9809	54.9309	52.5205	51.9835	49.866	49.0685	43.3637	30.4443	28.3774	31.0244	35.3339	41.3102	45.5639	47.6597	51.4599	51.1641	46.7443	42.974	36.2391	29.5637	20.7106	14.6217	24.7458	24.2232	20.5107	11.1821	15.483	18.3882	26.4448	28.3983	28.2475	26.6345	19.4885	4.96968	11.1605	9.78247	7.68068	3.13351	-0.45205	-3.61456	-7.91899	-12.0081	-10.6586	-9.68684	-6.15385	-2.91313	1.19081	5.47854	10.2382	16.6181	18.9785	22.4433	23.6092	25.5745	26.5871	27.232	31.4826	34.2225	32.0798	29.1649	25.2866	22.3752	22.224	21.7467	25.7956	27.8743	27.7976	29.3339	32.5747	36.2187	37.3418	41.0729	48.0337	54.7679	63.4272	71.2607	73.3625	72.7673	69.5357	65.9221	63.7715	59.3077	51.3465	48.4287	45.1094	40.1751	37.2929	37.1077	34.0262	30.603	24.2317	19.7367	19.7236	20.7786	18.9658	18.027	17.063	16.1823	16.025	17.3109	20.8354	25.9934	33.7901	42.0279	46.5869	51.2505	51.5408	53.1669	55.8521	57.9355	59.0851	57.7418	56.9374	55.6953	52.9781	53.4584	54.1179	54.1557	56.2175	57.8339	58.5455	57.9574	58.027	58.5225	58.8956	62.4832	61.6474	64.0338	69.9406	74.2138	79.1202	85.5168	103.49	110.186	111.835	110.199	103.346	95.7891	89.6695	81.6097	72.1249	61.2338	50.5208	41.1641	33.4749	27.6221	29.0311	28.7692	28.1461	29.2985	27.8539	28.6653	30.9203	29.9358	27.2607	23.6098	25.0604	20.3205	22.2343	26.361	30.6438	31.8115	30.5946	28.4828	23.6704	20.0228	17.2089	13.7737	7.12153	1.34764	-3.38018	-8.5688	-10.8859	-12.4906	-9.70848	-4.7417	1.30473	5.3138	5.47638	6.91799	11.0777	15.0351	20.2726	23.9753	30.5892	37.6389	41.9907	42.0779	41.3053	42.3078	40.3101	37.3116	36.3032	34.4671	35.2226	33.7684	33.1221	33.3546	32.6312	32.4714	29.7024	26.3114	28.5351	29.1683	33.2925	39.6101	45.4895	51.0145	58.7198	61.6947	64.4719	70.9452	72.9393	75.4273	72.6031	65.0269	55.4014	44.2417	36.0991	30.1896	27.0405	25.7455	28.2785	29.3411	36.8054	44.7916	52.6631	59.5023	65.0326	63.3315	61.4856	62.8235	61.2624	58.9486	56.5605	52.4307	47.2692	43.3949	41.3404	39.1451	41.7005	42.262	41.4001	44.5674	47.4201	53.5967	58.7088	62.4193	66.8867	70.8632	78.6652	80.3625	83.3763	83.345	81.102	76.2043	68.1308	58.0616	45.6904	35.4752	29.8123	21.4916	19.8378	23.8063	31.3223	42.4531	55.4725	60.9249	67.0435	70.3492	73.9284	71.9525	71.7915	68.7212	66.3836	60.6386	52.5614	45.4168	42.4002	42.0756	41.7653	43.5685	51.1849	58.328	66.014	75.8993	82.8052	93.6749	105.764	113.074	120.707	125.386	127.138	127.853	129.021	129.339	125.798	120.743	115.709	110.408	103.29	99.0528	95.0737	83.2979	79.6962	80.9137	81.5212	86.9514	92.848	97.8297	100.427	109.196	118.738	132.012	147.52	156.765	160.118	162.192	165.243	163.542	156.646	148.077	140.691	135.442	130.029	131.504	126.071	122.086	119.013	116.279	115.038	115.054	117.391	119.257	114.907	111.653	107.197	102.393	93.8195	82.705	67.7622	42.0235	29.3791	26.0697	25.0447	25.1563	32.5492	35.681	39.865	45.7068	53.6835	59.9041	66.9014	72.7886	70.2759	74.4986	79.76	83.9517	89.8938	92.3962	94.0223	91.1476	88.8362	83.7207	72.5997	61.1029	47.5695	33.0242	20.0901	8.22473	2.47214	-1.34333	0.299137	6.63851	14.9802	24.7359	36.158	47.9769	74.1837	83.689	90.4371	94.3438	89.7426	83.1236	69.0595	52.8209	32.7214	15.8061	1.2497	-7.24268	-11.203	-10.8385	-7.73589	2.38361	12.144	29.5819	37.2145	40.0487	43.1663	43.0843	43.1349	40.1306	33.6033	30.4481	31.9477	22.8621	15.0599	9.42755	6.57245	3.64117	2.25058	5.22929	10.4798	16.7566	17.5153	17.1592	15.1934	13.0555	12.9057	19.416	26.3315	35.8555	41.6483	39.266	37.1482	33.6536	27.4914	21.2052	18.1492	14.3645	14.8273	16.1329	18.8711	20.4489	22.9424	29.3983	41.771	55.5715	72.7461	87.6167	102.088	109.633	113.048	114.917	113.023	109.368	102.584	94.2343	85.1949	81.3836	76.6398	76.9677	77.8098	82.3647	87.6539	93.2013	102.844	111.227	120.158	121.742	121.567	116.994	116.977	114.598	114.539	115.115	115.863	116.759	114.711	110.596	105.911	106.103	107.665	115.913	116.628	109.475	103.544	95.631	88.5463	81.1257	76.4195	72.9953	72.5498	72.9602	74.7962	72.465	62.3852	57.4585	52.6979	49.5967	43.0466	38.636	32.9956	29.5801	29.0235	28.4811	31.5487	32.9349	36.3645	38.6264	37.7185	34.4167	32.351	29.1523	21.8398	15.4696	10.9424	4.32764	1.91771	-1.65439	-6.8979	-10.5848	-15.0086	-8.92472	-3.09669	2.84068	9.63026	17.0137	26.0754	29.5262	28.8227	27.8489	28.9138	26.59	24.2671	23.7592	24.5503	24.9706	26.0299	27.1685	24.6351	20.8816	17.7114	14.8742	11.2277	9.33542	5.66451	4.25552	2.04326	-3.79352	-7.39091	-4.83633	-1.84293	2.5347	10.4832	17.9997	24.2488	28.9958	33.0416	37.4207	39.4199	38.6873	37.9717	39.2283	43.5522	44.94	47.7524	53.4322	58.0343	64.4112	68.123	71.0217	68.7011	62.9913	59.3653	51.7117	48.8865	44.6772	42.9604	41.7722	40.3632	35.1136	39.0939	41.5929	50.5912	58.9989	75.8704	93.3982	109.464	122.937	127.854	133.083	115.842	87.6615	34.2507	7.09379	17.9302	20.3204	24.1738	46.098	64.4006
3	-12.8195	12.2025	23.7589	25.4587	30.417	30.3635	27.2812	21.9496	16.2988	12.8234	10.2707	7.808	4.86129	1.95554	-0.138952	-1.83185	-1.5534	0.684834	1.08407	0.859284	-0.474947	-1.68861	-1.42518	-1.1614	0.498555	2.04888	3.30627	6.11683	11.0261	14.5435	17.3291	18.8441	20.2072	21.1028	21.6766	20.4172	20.1998	17.2538	13.3701	10.2182	6.75275	5.03469	2.76223	1.3835	1.01149	1.01659	1.54749	2.60417	3.91192	5.39629	8.59718	8.91472	8.94987	10.1992	10.893	11.9867	12.8704	12.3865	11.7943	11.2246	10.4738	9.81524	9.46424	9.56146	11.305	12.1759	12.1609	14.0195	17.6937	21.9396	24.145	27.1158	31.5259	35.7511	39.79	44.8596	48.5789	51.0724	52.8646	56.3294	58.2714	60.5592	62.7004	66.4305	71.1916	74.2847	74.6079	74.6338	73.2915	70.2984	66.7659	62.8564	56.9547	50.98	44.9246	38.4937	31.4192	24.2825	17.5348	14.4657	11.5826	10.0338	6.96842	4.72107	3.67772	1.90769	0.638103	0.478338	0.746082	1.01436	0.272573	-0.894776	-1.58463	-1.41718	-1.18301	-1.16018	-0.547049	-0.116091	-1.99927	-3.96684	-5.66877	-7.66724	-8.78714	-9.52916	-8.42545	-7.22602	-4.61039	-1.94838	2.44562	5.60791	8.42229	9.8875	11.0101	14.2401	18.3926	20.089	21.2122	21.1609	17.2514	14.3807	11.4095	9.19277	8.10956	7.07475	7.6794	8.4039	9.1957	10.0466	11.3546	12.746	13.7022	16.8135	19.7147	21.7983	25.8941	28.84	31.1434	30.2661	30.3662	30.9344	28.3937	28.1696	30.0665	31.2946	33.4247	35.797	36.2194	34.2724	30.7496	28.8859	28.9938	28.6827	30.3682	30.155	29.5049	29.4454	30.7972	31.7276	31.2362	29.2978	26.193	24.3557	21.4748	19.348	17.8489	15.6417	12.0871	8.62082	7.38039	5.99814	5.29873	8.31946	12.2072	14.5753	18.961	24.1963	28.0939	33.4786	37.8532	41.4855	42.6671	44.1049	43.6355	42.0983	40.3102	36.9979	32.3992	27.556	26.215	26.4106	26.5714	27.3672	24.4357	22.7599	22.4984	20.3577	18.2024	17.6683	15.8224	15.5635	13.6967	13.9037	14.6481	16.5059	17.7059	18.1236	19.5067	22.4366	27.5865	32.8062	37.1956	40.7374	42.6582	44.918	46.5691	46.1679	46.1343	43.6663	40.8622	38.7272	37.2178	35.1785	32.8967	30.7161	28.4657	26.1492	25.9781	26.2437	29.5962	31.8368	37.0626	41.386	44.1737	45.3181	46.9903	47.8914	46.1046	44.7107	45.4829	46.1126	44.0725	41.8609	38.5077	35.9888	33.7252	32.5521	31.6702	29.4831	27.8922	25.698	24.8538	25.6722	29.5059	32.9858	37.8467	44.0169	50.9744	59.3789	66.9889	71.6935	74.6044	77.4383	79.4694	79.8337	80.7324	79.2651	73.524	65.0527	57.8734	52.1318	47.8621	46.7197	45.6037	45.7072	45.7903	48.9489	51.2171	54.2529	56.832	59.2018	61.0318	64.4184	66.6765	67.387	67.0772	64.1827	60.2056	58.4936	58.2456	56.0589	54.9835	55.371	54.2011	55.1124	56.4447	59.5512	60.1333	60.4472	63.9183	67.7259	70.2003	72.0961	74.7272	76.5566	77.5618	75.8631	71.7164	68.3948	64.4945	60.0794	57.8498	57.3047	54.1511	51.9866	50.5572	49.6993	50.5152	50.3825	52.6983	52.9664	53.1102	54.1868	53.4016	52.161	50.3897	46.7174	45.525	44.7132	42.8107	40.5297	42.2758	41.747	40.7901	41.7367	40.3618	39.8205	38.3209	39.0489	40.8045	42.16	42.1241	39.9535	37.0925	34.5328	31.7342	28.5504	28.3108	28.2453	28.5958	29.1364	32.0052	34.8605	37.9852	43.0891	46.7198	48.0923	49.4046	48.8067	46.9246	44.3674	42.7019	38.8218	35.5196	29.9706	26.1113	21.779	21.7786	21.0912	23.0433	24.7938	28.5939	32.5828	34.1146	33.1383	30.6889	28.2909	27.741	27.6241	27.9373	29.0029	31.4356	32.8096	35.8356	38.3184	40.5899	43.4592	46.8575	49.3203	50.1047	51.2037	51.0935	50.6796	48.8064	46.4116	43.7819	41.7326	37.481	34.8754	31.6961	31.2804	31.5982	33.7037	19.9199	-2.46428	-2.14854	31.3799	40.7745	32.9754	34.5779	32.9348	34.3496	30.9502	29.2088	26.013	27.578	23.6383	19.9675	19.4969	21.7095	25.449	30.651	35.7523	35.5976	34.1804	31.4155	29.4617	28.2581	25.6118	23.2551	19.1781	15.7852	13.0542	8.87209	4.83383	1.94851	0.092414	-1.35728	-2.65879	-2.40657	-2.19377	-1.2823	-3.44335	-4.37926	-4.13385	-2.3719	2.55894	6.03709	11.1768	18.7173	24.4224	31.8999	38.1864	44.1189	45.0869	44.3875	42.9382	41.213	38.8797	36.3744	32.577	26.2233	17.9239	12.0697	8.93614	6.50938	3.53673	4.79066	6.52191	11.0855	16.3235	21.7845	24.097	25.9058	23.618	21.2751	19.0512	16.4429	14.1755	12.5961	9.41426	7.67187	4.77082	4.55147	4.78005	5.09897	6.60798	10.6951	15.8266	20.9167	25.5982	28.542	30.0104	29.7409	28.2966	27.0739	25.4917	24.9366	24.9301	24.9738	24.9905	25.9589	25.1876	27.4366	28.5386	29.1584	30.9931	32.8209	36.3188	37.5997	38.9958	39.7851	39.8788	42.211	44.245	44.22	45.0915	48.5643	48.5764	47.0864	44.9714	40.3156	33.8477	32.8714	34.4558	37.7725	42.1066	46.2674	51.489	54.7458	56.4035	54.9634	53.864	51.6599	47.1226	43.1819	40.4662	36.7958	31.0968	28.0033	26.899	26.406	27.8473	29.7822	32.8427	34.3965	36.886	37.0776	35.5447	32.8724	27.2404	22.9559	22.1239	20.8524	16.8794	18.3645	18.7137	19.9097	22.4394	27.0841	33.5965	47.0033	47.332	46.6341	44.296	38.6941	33.7875	30.6379	25.8116	24.7863	24.4052	25.2287	25.4209	31.0133	28.7521	27.0722	18.152	21.9369	21.8785	22.0769	23.4151	25.9208	26.6452	28.0216	29.5678	28.3826	25.9738	23.868	21.4138	20.9806	18.5547	12.8345	7.48321	6.84828	4.99202	3.47128	3.29094	1.15714	0.409979	2.19926	4.84449	9.91246	14.6879	21.6942	26.1973	28.5349	29.6688	26.2092	21.183	17.213	12.244	7.69414	4.16467	1.74439	-5.75659	-10.2603	-11.1955	-9.99131	-6.33359	-0.897674	2.81655	12.9415	21.3164	25.28	26.2474	29.2653	29.6672	29.0275	27.378	18.7829	14.9411	8.58475	8.03084	9.03352	12.6623	14.7835	16.7929	20.9814	25.9229	28.4258	31.1322	34.5005	36.8089	36.6835	28.9607	28.6315	28.5855	28.9242	30.9514	31.1214	33.7253	34.8503	34.2775	32.6997	33.352	34.533	33.7339	32.8078	29.813	30.201	28.4452	27.1949	25.2332	20.6668	16.5242	14.4031	13.7618	13.4192	9.80289	8.57786	8.6766	10.6898	12.7112	17.2954	21.7754	25.0753	28.4967	32.8688	35.5726	35.4505	35.2375	34.7583	35.496	38.068	39.9673	40.3483	40.2454	39.2536	39.9175	43.0477	44.1948	47.3719	50.0147	52.0796	51.6976	52.1799	51.9263	52.9897	53.7151	54.9281	57.6426	60.8854	63.5074	65.9261	67.3484	66.8231	68.2319	68.5977	66.8998	65.7175	63.6966	65.3641	65.1555	64.7701	65.0761	63.6296	61.338	57.6809	55.8378	51.7692	49.4553	49.2013	47.1794	50.2885	51.0696	50.8027	49.6028	47.6218	45.0396	42.1005	41.5359	40.5418	37.7386	33.8183	27.3087	19.8505	11.9814	6.4584	5.56265	3.02452	-1.08606	-3.2268	-4.88109	-4.65907	-4.2771	-3.39863	-2.08556	1.73491	4.98573	9.23628	14.8081	17.8509	22.0895	23.8655	22.2839	21.2128	19.6082	17.5596	15.1161	14.612	16.1802	20.3285	20.4316	23.0075	24.2705	24.4395	26.8845	29.4692	29.526	30.8722	30.4355	28.7866	28.7845	25.8684	24.1998	26.042	28.5661	30.4424	34.4261	40.9495	47.8302	54.0702	60.787	64.3722	65.8185	67.5191	72.1676	65.9843	58.8818	50.724	41.961	35.2588	29.8752	26.9614	25.873	26.2393	39.3515	37.7502	36.5217	29.9363	27.2409	22.9876	19.8951	16.9272	14.5533	12.2666	13.5099	15.4695	17.2335	18.9799	17.7094	18.1675	18.9939	15.8677	13.3709	13.1065	13.5464	14.3	13.4813	10.5924	10.221	11.0644	12.2452	12.8283	13.9763	15.8758	17.7087	18.2623	20.3928	21.2859	23.2165	27.2238	29.2299	29.4729	31.8643	31.6617	28.6334	24.987	21.7399	16.8561	11.8682	9.13777	5.64181	4.44576	2.64516	0.180147	-1.21639	-2.08531	-2.69466	-2.29813	-1.62306	-1.90077	-2.16959	0.227347	1.90323	4.42372	7.39496	12.7555	16.2657	17.2491	17.8376	20.2222	21.7882	24.6216	24.8793	21.9231	18.325	14.6005	12.038	8.67807	5.60052	5.81876	8.16843	13.6587	14.8191	17.7681	19.7442	19.5864	19.7209	21.9167	25.9696	29.3343	31.9033	35.0938	37.0071	39.2358	41.8952	42.0596	41.952	41.6573	42.8112	44.0799	45.5948	45.8195	47.4345	46.2772	41.9046	36.229	30.48	28.2648	24.2063	22.5701	20.7384	18.215	17.3247	18.834	20.9538	21.6908	22.3475	27.6317	36.881	43.3061	45.5915	43.7443	39.5946	34.1187	29.4793	26.4185	21.3563	17.519	11.9197	7.40388	2.30393	0.206234	2.60967	7.95836	13.4687	23.6347	28.154	32.1975	34.4678	36.8502	39.0041	38.2084	39.2278	40.1557	40.7878	41.7821	40.9646	38.1596	32.6102	28.9367	26.0061	24.8825	23.9995	24.485	23.096	22.3618	25.1444	22.1684	18.8232	19.1883	17.4442	20.7631	24.3286	40.4555	86.0768	54.6317	30.052	-6.2223	-11.8467	-3.66088	11.2801	21.7135	31.5748	36.2013	32.4717	27.9539	25.1232	22.919	24.4929	24.2374	23.6277	23.8649	24.9567	27.3243	29.7128	32.8303	37.7398	43.913	49.0763	53.0903	57.1023	58.8229	61.0743	61.9639	62.1481	62.5057	62.3615	61.6554	61.3358	59.2829	56.8539	55.8887	56.0035	56	57.6806	58.426	56.9828	55.1996	53.4479	52.4706	50.7069	47.3235	42.1691
